 Fe Density=7.874 Thickness=1. microns
 Photon Energy (eV), Transmission
    5000.0      0.89975    
    5040.8      0.90184    
    5081.6      0.90388    
    5122.4      0.90587    
    5163.3      0.90780    
    5204.1      0.90968    
    5244.9      0.91151    
    5285.7      0.91328    
    5326.5      0.91502    
    5367.3      0.91670    
    5408.2      0.91834    
    5449.0      0.91994    
    5489.8      0.92149    
    5530.6      0.92301    
    5571.4      0.92449    
    5612.2      0.92593    
    5653.1      0.92733    
    5693.9      0.92870    
    5734.7      0.93003    
    5775.5      0.93133    
    5816.3      0.93260    
    5857.1      0.93383    
    5898.0      0.93504    
    5938.8      0.93622    
    5979.6      0.93737    
    6020.4      0.93849    
    6061.2      0.93958    
    6102.0      0.94065    
    6142.9      0.94169    
    6183.7      0.94271    
    6224.5      0.94370    
    6265.3      0.94467    
    6306.1      0.94562    
    6346.9      0.94654    
    6387.8      0.94745    
    6428.6      0.94833    
    6469.4      0.94920    
    6510.2      0.95004    
    6551.0      0.95087    
    6591.8      0.95168    
    6632.7      0.95247    
    6673.5      0.95324    
    6714.3      0.95399    
    6755.1      0.95473    
    6795.9      0.95546    
    6836.7      0.95616    
    6877.6      0.95686    
    6918.4      0.95753    
    6959.2      0.95820    
    7000.0      0.95884    
    7040.8      0.95948    
    7081.6      0.96010    
    7122.4      0.72573    
    7163.3      0.72897    
    7204.1      0.73216    
    7244.9      0.73531    
    7285.7      0.73840    
    7326.5      0.74146    
    7367.3      0.74448    
    7408.2      0.74745    
    7449.0      0.75039    
    7489.8      0.75330    
    7530.6      0.75616    
    7571.4      0.75898    
    7612.2      0.76177    
    7653.1      0.76452    
    7693.9      0.76723    
    7734.7      0.76991    
    7775.5      0.77255    
    7816.3      0.77515    
    7857.1      0.77772    
    7898.0      0.78026    
    7938.8      0.78276    
    7979.6      0.78523    
    8020.4      0.78767    
    8061.2      0.79007    
    8102.0      0.79244    
    8142.9      0.79478    
    8183.7      0.79709    
    8224.5      0.79937    
    8265.3      0.80162    
    8306.1      0.80383    
    8346.9      0.80602    
    8387.8      0.80818    
    8428.6      0.81031    
    8469.4      0.81241    
    8510.2      0.81449    
    8551.0      0.81653    
    8591.8      0.81855    
    8632.7      0.82054    
    8673.5      0.82251    
    8714.3      0.82444    
    8755.1      0.82636    
    8795.9      0.82825    
    8836.7      0.83011    
    8877.6      0.83195    
    8918.4      0.83377    
    8959.2      0.83555    
    9000.0      0.83732    
    9040.8      0.83906    
    9081.6      0.84079    
    9122.4      0.84249    
    9163.3      0.84416    
    9204.1      0.84582    
    9244.9      0.84745    
    9285.7      0.84906    
    9326.5      0.85065    
    9367.3      0.85222    
    9408.2      0.85377    
    9449.0      0.85529    
    9489.8      0.85680    
    9530.6      0.85829    
    9571.4      0.85976    
    9612.2      0.86121    
    9653.1      0.86265    
    9693.9      0.86406    
    9734.7      0.86546    
    9775.5      0.86683    
    9816.3      0.86819    
    9857.1      0.86954    
    9898.0      0.87086    
    9938.8      0.87217    
    9979.6      0.87346    
    10020.      0.87474    
    10061.      0.87600    
    10102.      0.87724    
    10143.      0.87847    
    10184.      0.87969    
    10224.      0.88088    
    10265.      0.88207    
    10306.      0.88324    
    10347.      0.88439    
    10388.      0.88553    
    10429.      0.88665    
    10469.      0.88776    
    10510.      0.88886    
    10551.      0.88995    
    10592.      0.89102    
    10633.      0.89207    
    10673.      0.89312    
    10714.      0.89415    
    10755.      0.89517    
    10796.      0.89617    
    10837.      0.89717    
    10878.      0.89815    
    10918.      0.89912    
    10959.      0.90008    
    11000.      0.90103    
    11041.      0.90196    
    11082.      0.90289    
    11122.      0.90380    
    11163.      0.90470    
    11204.      0.90559    
    11245.      0.90647    
    11286.      0.90734    
    11327.      0.90821    
    11367.      0.90906    
    11408.      0.90990    
    11449.      0.91072    
    11490.      0.91155    
    11531.      0.91236    
    11571.      0.91316    
    11612.      0.91395    
    11653.      0.91473    
    11694.      0.91550    
    11735.      0.91627    
    11776.      0.91702    
    11816.      0.91777    
    11857.      0.91851    
    11898.      0.91924    
    11939.      0.91996    
    11980.      0.92067    
    12020.      0.92138    
    12061.      0.92207    
    12102.      0.92276    
    12143.      0.92344    
    12184.      0.92412    
    12224.      0.92478    
    12265.      0.92544    
    12306.      0.92609    
    12347.      0.92673    
    12388.      0.92737    
    12429.      0.92800    
    12469.      0.92862    
    12510.      0.92924    
    12551.      0.92984    
    12592.      0.93045    
    12633.      0.93104    
    12673.      0.93163    
    12714.      0.93221    
    12755.      0.93279    
    12796.      0.93335    
    12837.      0.93392    
    12878.      0.93447    
    12918.      0.93503    
    12959.      0.93557    
    13000.      0.93611    
    13041.      0.93664    
    13082.      0.93717    
    13122.      0.93769    
    13163.      0.93821    
    13204.      0.93872    
    13245.      0.93922    
    13286.      0.93972    
    13327.      0.94022    
    13367.      0.94070    
    13408.      0.94119    
    13449.      0.94167    
    13490.      0.94214    
    13531.      0.94261    
    13571.      0.94307    
    13612.      0.94353    
    13653.      0.94398    
    13694.      0.94443    
    13735.      0.94488    
    13776.      0.94532    
    13816.      0.94575    
    13857.      0.94618    
    13898.      0.94661    
    13939.      0.94703    
    13980.      0.94745    
    14020.      0.94786    
    14061.      0.94827    
    14102.      0.94868    
    14143.      0.94908    
    14184.      0.94948    
    14224.      0.94987    
    14265.      0.95026    
    14306.      0.95064    
    14347.      0.95102    
    14388.      0.95140    
    14429.      0.95177    
    14469.      0.95214    
    14510.      0.95251    
    14551.      0.95287    
    14592.      0.95323    
    14633.      0.95359    
    14673.      0.95394    
    14714.      0.95429    
    14755.      0.95463    
    14796.      0.95497    
    14837.      0.95531    
    14878.      0.95564    
    14918.      0.95598    
    14959.      0.95630    
    15000.      0.95663    
    15041.      0.95695    
    15082.      0.95727    
    15122.      0.95758    
    15163.      0.95790    
    15204.      0.95821    
    15245.      0.95851    
    15286.      0.95882    
    15327.      0.95912    
    15367.      0.95942    
    15408.      0.95971    
    15449.      0.96000    
    15490.      0.96029    
    15531.      0.96058    
    15571.      0.96086    
    15612.      0.96114    
    15653.      0.96142    
    15694.      0.96170    
    15735.      0.96197    
    15776.      0.96224    
    15816.      0.96251    
    15857.      0.96278    
    15898.      0.96304    
    15939.      0.96330    
    15980.      0.96356    
    16020.      0.96382    
    16061.      0.96407    
    16102.      0.96432    
    16143.      0.96457    
    16184.      0.96482    
    16224.      0.96506    
    16265.      0.96530    
    16306.      0.96554    
    16347.      0.96578    
    16388.      0.96602    
    16429.      0.96625    
    16469.      0.96648    
    16510.      0.96671    
    16551.      0.96694    
    16592.      0.96717    
    16633.      0.96739    
    16673.      0.96761    
    16714.      0.96783    
    16755.      0.96805    
    16796.      0.96826    
    16837.      0.96848    
    16878.      0.96869    
    16918.      0.96890    
    16959.      0.96911    
    17000.      0.96931    
    17041.      0.96952    
    17082.      0.96972    
    17122.      0.96992    
    17163.      0.97012    
    17204.      0.97032    
    17245.      0.97051    
    17286.      0.97071    
    17327.      0.97090    
    17367.      0.97109    
    17408.      0.97128    
    17449.      0.97147    
    17490.      0.97165    
    17531.      0.97184    
    17571.      0.97202    
    17612.      0.97220    
    17653.      0.97238    
    17694.      0.97256    
    17735.      0.97273    
    17776.      0.97291    
    17816.      0.97308    
    17857.      0.97325    
    17898.      0.97342    
    17939.      0.97359    
    17980.      0.97376    
    18020.      0.97393    
    18061.      0.97409    
    18102.      0.97426    
    18143.      0.97442    
    18184.      0.97458    
    18224.      0.97474    
    18265.      0.97490    
    18306.      0.97505    
    18347.      0.97521    
    18388.      0.97536    
    18429.      0.97552    
    18469.      0.97567    
    18510.      0.97582    
    18551.      0.97597    
    18592.      0.97612    
    18633.      0.97626    
    18673.      0.97641    
    18714.      0.97655    
    18755.      0.97670    
    18796.      0.97684    
    18837.      0.97698    
    18878.      0.97712    
    18918.      0.97726    
    18959.      0.97740    
    19000.      0.97753    
    19041.      0.97767    
    19082.      0.97780    
    19122.      0.97794    
    19163.      0.97807    
    19204.      0.97820    
    19245.      0.97833    
    19286.      0.97846    
    19327.      0.97859    
    19367.      0.97871    
    19408.      0.97884    
    19449.      0.97896    
    19490.      0.97909    
    19531.      0.97921    
    19571.      0.97933    
    19612.      0.97946    
    19653.      0.97958    
    19694.      0.97970    
    19735.      0.97981    
    19776.      0.97993    
    19816.      0.98005    
    19857.      0.98016    
    19898.      0.98028    
    19939.      0.98039    
    19980.      0.98051    
    20020.      0.98062    
    20061.      0.98073    
    20102.      0.98084    
    20143.      0.98095    
    20184.      0.98106    
    20224.      0.98117    
    20265.      0.98127    
    20306.      0.98138    
    20347.      0.98149    
    20388.      0.98159    
    20429.      0.98170    
    20469.      0.98180    
    20510.      0.98190    
    20551.      0.98200    
    20592.      0.98210    
    20633.      0.98220    
    20673.      0.98230    
    20714.      0.98240    
    20755.      0.98250    
    20796.      0.98260    
    20837.      0.98269    
    20878.      0.98279    
    20918.      0.98289    
    20959.      0.98298    
    21000.      0.98307    
    21041.      0.98317    
    21082.      0.98326    
    21122.      0.98335    
    21163.      0.98344    
    21204.      0.98353    
    21245.      0.98362    
    21286.      0.98371    
    21327.      0.98380    
    21367.      0.98389    
    21408.      0.98398    
    21449.      0.98406    
    21490.      0.98415    
    21531.      0.98423    
    21571.      0.98432    
    21612.      0.98440    
    21653.      0.98449    
    21694.      0.98457    
    21735.      0.98465    
    21776.      0.98473    
    21816.      0.98481    
    21857.      0.98490    
    21898.      0.98498    
    21939.      0.98505    
    21980.      0.98513    
    22020.      0.98521    
    22061.      0.98529    
    22102.      0.98537    
    22143.      0.98544    
    22184.      0.98552    
    22224.      0.98560    
    22265.      0.98567    
    22306.      0.98575    
    22347.      0.98582    
    22388.      0.98589    
    22429.      0.98597    
    22469.      0.98604    
    22510.      0.98611    
    22551.      0.98618    
    22592.      0.98625    
    22633.      0.98632    
    22673.      0.98639    
    22714.      0.98646    
    22755.      0.98653    
    22796.      0.98660    
    22837.      0.98667    
    22878.      0.98674    
    22918.      0.98681    
    22959.      0.98687    
    23000.      0.98694    
    23041.      0.98701    
    23082.      0.98707    
    23122.      0.98714    
    23163.      0.98720    
    23204.      0.98726    
    23245.      0.98733    
    23286.      0.98739    
    23327.      0.98746    
    23367.      0.98752    
    23408.      0.98758    
    23449.      0.98764    
    23490.      0.98770    
    23531.      0.98776    
    23571.      0.98782    
    23612.      0.98788    
    23653.      0.98794    
    23694.      0.98800    
    23735.      0.98806    
    23776.      0.98812    
    23816.      0.98818    
    23857.      0.98824    
    23898.      0.98829    
    23939.      0.98835    
    23980.      0.98841    
    24020.      0.98846    
    24061.      0.98852    
    24102.      0.98858    
    24143.      0.98863    
    24184.      0.98869    
    24224.      0.98874    
    24265.      0.98879    
    24306.      0.98885    
    24347.      0.98890    
    24388.      0.98896    
    24429.      0.98901    
    24469.      0.98906    
    24510.      0.98911    
    24551.      0.98916    
    24592.      0.98922    
    24633.      0.98927    
    24673.      0.98932    
    24714.      0.98937    
    24755.      0.98942    
    24796.      0.98947    
    24837.      0.98952    
    24878.      0.98957    
    24918.      0.98962    
    24959.      0.98966    
    25000.      0.98971    