 Si Density=2.33 Thickness=1. microns
 Photon Energy (eV), Transmission
    5000.0      0.94599    
    5040.8      0.94719    
    5081.6      0.94835    
    5122.4      0.94948    
    5163.3      0.95058    
    5204.1      0.95165    
    5244.9      0.95269    
    5285.7      0.95369    
    5326.5      0.95467    
    5367.3      0.95563    
    5408.2      0.95655    
    5449.0      0.95745    
    5489.8      0.95833    
    5530.6      0.95919    
    5571.4      0.96002    
    5612.2      0.96083    
    5653.1      0.96161    
    5693.9      0.96238    
    5734.7      0.96313    
    5775.5      0.96385    
    5816.3      0.96456    
    5857.1      0.96525    
    5898.0      0.96593    
    5938.8      0.96658    
    5979.6      0.96722    
    6020.4      0.96785    
    6061.2      0.96845    
    6102.0      0.96905    
    6142.9      0.96962    
    6183.7      0.97019    
    6224.5      0.97074    
    6265.3      0.97128    
    6306.1      0.97180    
    6346.9      0.97231    
    6387.8      0.97281    
    6428.6      0.97330    
    6469.4      0.97378    
    6510.2      0.97424    
    6551.0      0.97469    
    6591.8      0.97514    
    6632.7      0.97557    
    6673.5      0.97599    
    6714.3      0.97641    
    6755.1      0.97681    
    6795.9      0.97721    
    6836.7      0.97760    
    6877.6      0.97797    
    6918.4      0.97834    
    6959.2      0.97870    
    7000.0      0.97906    
    7040.8      0.97940    
    7081.6      0.97974    
    7122.4      0.98007    
    7163.3      0.98040    
    7204.1      0.98071    
    7244.9      0.98102    
    7285.7      0.98133    
    7326.5      0.98162    
    7367.3      0.98192    
    7408.2      0.98220    
    7449.0      0.98248    
    7489.8      0.98275    
    7530.6      0.98302    
    7571.4      0.98328    
    7612.2      0.98354    
    7653.1      0.98379    
    7693.9      0.98404    
    7734.7      0.98428    
    7775.5      0.98452    
    7816.3      0.98475    
    7857.1      0.98498    
    7898.0      0.98520    
    7938.8      0.98542    
    7979.6      0.98563    
    8020.4      0.98584    
    8061.2      0.98605    
    8102.0      0.98625    
    8142.9      0.98645    
    8183.7      0.98665    
    8224.5      0.98684    
    8265.3      0.98702    
    8306.1      0.98721    
    8346.9      0.98739    
    8387.8      0.98757    
    8428.6      0.98774    
    8469.4      0.98791    
    8510.2      0.98808    
    8551.0      0.98824    
    8591.8      0.98840    
    8632.7      0.98856    
    8673.5      0.98872    
    8714.3      0.98887    
    8755.1      0.98902    
    8795.9      0.98917    
    8836.7      0.98931    
    8877.6      0.98945    
    8918.4      0.98959    
    8959.2      0.98973    
    9000.0      0.98987    
    9040.8      0.99000    
    9081.6      0.99013    
    9122.4      0.99026    
    9163.3      0.99038    
    9204.1      0.99051    
    9244.9      0.99063    
    9285.7      0.99075    
    9326.5      0.99087    
    9367.3      0.99098    
    9408.2      0.99110    
    9449.0      0.99121    
    9489.8      0.99132    
    9530.6      0.99143    
    9571.4      0.99153    
    9612.2      0.99164    
    9653.1      0.99174    
    9693.9      0.99184    
    9734.7      0.99194    
    9775.5      0.99204    
    9816.3      0.99213    
    9857.1      0.99223    
    9898.0      0.99232    
    9938.8      0.99241    
    9979.6      0.99250    
    10020.      0.99259    
    10061.      0.99268    
    10102.      0.99277    
    10143.      0.99285    
    10184.      0.99294    
    10224.      0.99302    
    10265.      0.99310    
    10306.      0.99318    
    10347.      0.99326    
    10388.      0.99333    
    10429.      0.99341    
    10469.      0.99349    
    10510.      0.99356    
    10551.      0.99363    
    10592.      0.99370    
    10633.      0.99377    
    10673.      0.99384    
    10714.      0.99391    
    10755.      0.99398    
    10796.      0.99405    
    10837.      0.99411    
    10878.      0.99418    
    10918.      0.99424    
    10959.      0.99430    
    11000.      0.99437    
    11041.      0.99443    
    11082.      0.99449    
    11122.      0.99455    
    11163.      0.99460    
    11204.      0.99466    
    11245.      0.99472    
    11286.      0.99477    
    11327.      0.99483    
    11367.      0.99488    
    11408.      0.99494    
    11449.      0.99499    
    11490.      0.99504    
    11531.      0.99509    
    11571.      0.99514    
    11612.      0.99519    
    11653.      0.99524    
    11694.      0.99529    
    11735.      0.99534    
    11776.      0.99539    
    11816.      0.99544    
    11857.      0.99548    
    11898.      0.99553    
    11939.      0.99557    
    11980.      0.99562    
    12020.      0.99566    
    12061.      0.99570    
    12102.      0.99575    
    12143.      0.99579    
    12184.      0.99583    
    12224.      0.99587    
    12265.      0.99591    
    12306.      0.99595    
    12347.      0.99599    
    12388.      0.99603    
    12429.      0.99607    
    12469.      0.99610    
    12510.      0.99614    
    12551.      0.99618    
    12592.      0.99622    
    12633.      0.99625    
    12673.      0.99629    
    12714.      0.99632    
    12755.      0.99636    
    12796.      0.99639    
    12837.      0.99642    
    12878.      0.99646    
    12918.      0.99649    
    12959.      0.99652    
    13000.      0.99656    
    13041.      0.99659    
    13082.      0.99662    
    13122.      0.99665    
    13163.      0.99668    
    13204.      0.99671    
    13245.      0.99674    
    13286.      0.99677    
    13327.      0.99680    
    13367.      0.99683    
    13408.      0.99686    
    13449.      0.99688    
    13490.      0.99691    
    13531.      0.99694    
    13571.      0.99697    
    13612.      0.99699    
    13653.      0.99702    
    13694.      0.99705    
    13735.      0.99707    
    13776.      0.99710    
    13816.      0.99712    
    13857.      0.99715    
    13898.      0.99717    
    13939.      0.99720    
    13980.      0.99722    
    14020.      0.99724    
    14061.      0.99727    
    14102.      0.99729    
    14143.      0.99731    
    14184.      0.99734    
    14224.      0.99736    
    14265.      0.99738    
    14306.      0.99740    
    14347.      0.99743    
    14388.      0.99745    
    14429.      0.99747    
    14469.      0.99749    
    14510.      0.99751    
    14551.      0.99753    
    14592.      0.99755    
    14633.      0.99757    
    14673.      0.99759    
    14714.      0.99761    
    14755.      0.99763    
    14796.      0.99765    
    14837.      0.99767    
    14878.      0.99769    
    14918.      0.99771    
    14959.      0.99773    
    15000.      0.99774    
    15041.      0.99776    
    15082.      0.99778    
    15122.      0.99780    
    15163.      0.99781    
    15204.      0.99783    
    15245.      0.99785    
    15286.      0.99787    
    15327.      0.99788    
    15367.      0.99790    
    15408.      0.99792    
    15449.      0.99793    
    15490.      0.99795    
    15531.      0.99796    
    15571.      0.99798    
    15612.      0.99800    
    15653.      0.99801    
    15694.      0.99803    
    15735.      0.99804    
    15776.      0.99806    
    15816.      0.99807    
    15857.      0.99809    
    15898.      0.99810    
    15939.      0.99811    
    15980.      0.99813    
    16020.      0.99814    
    16061.      0.99816    
    16102.      0.99817    
    16143.      0.99818    
    16184.      0.99820    
    16224.      0.99821    
    16265.      0.99822    
    16306.      0.99824    
    16347.      0.99825    
    16388.      0.99826    
    16429.      0.99828    
    16469.      0.99829    
    16510.      0.99830    
    16551.      0.99831    
    16592.      0.99833    
    16633.      0.99834    
    16673.      0.99835    
    16714.      0.99836    
    16755.      0.99837    
    16796.      0.99839    
    16837.      0.99840    
    16878.      0.99841    
    16918.      0.99842    
    16959.      0.99843    
    17000.      0.99844    
    17041.      0.99845    
    17082.      0.99846    
    17122.      0.99848    
    17163.      0.99849    
    17204.      0.99850    
    17245.      0.99851    
    17286.      0.99852    
    17327.      0.99853    
    17367.      0.99854    
    17408.      0.99855    
    17449.      0.99856    
    17490.      0.99857    
    17531.      0.99858    
    17571.      0.99859    
    17612.      0.99860    
    17653.      0.99861    
    17694.      0.99862    
    17735.      0.99863    
    17776.      0.99864    
    17816.      0.99864    
    17857.      0.99865    
    17898.      0.99866    
    17939.      0.99867    
    17980.      0.99868    
    18020.      0.99869    
    18061.      0.99870    
    18102.      0.99871    
    18143.      0.99872    
    18184.      0.99872    
    18224.      0.99873    
    18265.      0.99874    
    18306.      0.99875    
    18347.      0.99876    
    18388.      0.99877    
    18429.      0.99877    
    18469.      0.99878    
    18510.      0.99879    
    18551.      0.99880    
    18592.      0.99880    
    18633.      0.99881    
    18673.      0.99882    
    18714.      0.99883    
    18755.      0.99884    
    18796.      0.99884    
    18837.      0.99885    
    18878.      0.99886    
    18918.      0.99886    
    18959.      0.99887    
    19000.      0.99888    
    19041.      0.99889    
    19082.      0.99889    
    19122.      0.99890    
    19163.      0.99891    
    19204.      0.99891    
    19245.      0.99892    
    19286.      0.99893    
    19327.      0.99893    
    19367.      0.99894    
    19408.      0.99895    
    19449.      0.99895    
    19490.      0.99896    
    19531.      0.99897    
    19571.      0.99897    
    19612.      0.99898    
    19653.      0.99899    
    19694.      0.99899    
    19735.      0.99900    
    19776.      0.99900    
    19816.      0.99901    
    19857.      0.99902    
    19898.      0.99902    
    19939.      0.99903    
    19980.      0.99903    
    20020.      0.99904    
    20061.      0.99905    
    20102.      0.99905    
    20143.      0.99906    
    20184.      0.99906    
    20224.      0.99907    
    20265.      0.99907    
    20306.      0.99908    
    20347.      0.99908    
    20388.      0.99909    
    20429.      0.99910    
    20469.      0.99910    
    20510.      0.99911    
    20551.      0.99911    
    20592.      0.99912    
    20633.      0.99912    
    20673.      0.99913    
    20714.      0.99913    
    20755.      0.99914    
    20796.      0.99914    
    20837.      0.99915    
    20878.      0.99915    
    20918.      0.99916    
    20959.      0.99916    
    21000.      0.99917    
    21041.      0.99917    
    21082.      0.99918    
    21122.      0.99918    
    21163.      0.99918    
    21204.      0.99919    
    21245.      0.99919    
    21286.      0.99920    
    21327.      0.99920    
    21367.      0.99921    
    21408.      0.99921    
    21449.      0.99922    
    21490.      0.99922    
    21531.      0.99923    
    21571.      0.99923    
    21612.      0.99923    
    21653.      0.99924    
    21694.      0.99924    
    21735.      0.99925    
    21776.      0.99925    
    21816.      0.99925    
    21857.      0.99926    
    21898.      0.99926    
    21939.      0.99927    
    21980.      0.99927    
    22020.      0.99927    
    22061.      0.99928    
    22102.      0.99928    
    22143.      0.99929    
    22184.      0.99929    
    22224.      0.99929    
    22265.      0.99930    
    22306.      0.99930    
    22347.      0.99931    
    22388.      0.99931    
    22429.      0.99931    
    22469.      0.99932    
    22510.      0.99932    
    22551.      0.99932    
    22592.      0.99933    
    22633.      0.99933    
    22673.      0.99933    
    22714.      0.99934    
    22755.      0.99934    
    22796.      0.99934    
    22837.      0.99935    
    22878.      0.99935    
    22918.      0.99935    
    22959.      0.99936    
    23000.      0.99936    
    23041.      0.99936    
    23082.      0.99937    
    23122.      0.99937    
    23163.      0.99937    
    23204.      0.99938    
    23245.      0.99938    
    23286.      0.99938    
    23327.      0.99939    
    23367.      0.99939    
    23408.      0.99939    
    23449.      0.99940    
    23490.      0.99940    
    23531.      0.99940    
    23571.      0.99941    
    23612.      0.99941    
    23653.      0.99941    
    23694.      0.99941    
    23735.      0.99942    
    23776.      0.99942    
    23816.      0.99942    
    23857.      0.99943    
    23898.      0.99943    
    23939.      0.99943    
    23980.      0.99943    
    24020.      0.99944    
    24061.      0.99944    
    24102.      0.99944    
    24143.      0.99944    
    24184.      0.99945    
    24224.      0.99945    
    24265.      0.99945    
    24306.      0.99946    
    24347.      0.99946    
    24388.      0.99946    
    24429.      0.99946    
    24469.      0.99947    
    24510.      0.99947    
    24551.      0.99947    
    24592.      0.99947    
    24633.      0.99948    
    24673.      0.99948    
    24714.      0.99948    
    24755.      0.99948    
    24796.      0.99949    
    24837.      0.99949    
    24878.      0.99949    
    24918.      0.99949    
    24959.      0.99950    
    25000.      0.99950    